cualumina 15' Cu311 Cox Al2O3                                          cualu001 
Instrument parameter file:bt1demo.ins                                           
BANK  1     3300     660 CONST     300.00      5.00 0 0 ESD                     
    119.     17.    149.     19.    141.     19.    117.     17.    130.     18.
    103.     16.     90.     15.     79.     14.    114.     17.    103.     16.
    127.     18.    114.     17.    111.     17.    119.     17.    127.     18.
     95.     15.    114.     17.     82.     14.     84.     14.     87.     15.
     79.     14.    114.     17.    119.     17.    106.     16.     82.     14.
     57.     11.    100.     16.    111.     17.    100.     16.    117.     17.
     87.     15.     84.     14.    103.     16.     71.     13.     87.     15.
     95.     15.     87.     15.    100.     16.     98.     16.    109.     16.
     65.     12.    103.     16.     49.     10.     84.     14.    114.     17.
    111.     17.     73.     13.     82.     14.     79.     14.     87.     15.
     84.     14.    127.     18.     79.     14.    100.     16.     95.     15.
     68.     13.     73.     13.     84.     14.     79.     14.     95.     15.
    106.     16.     82.     14.     90.     15.     84.     14.     90.     15.
     92.     15.     87.     15.     84.     14.     87.     15.     92.     15.
     92.     15.     76.     14.     76.     14.     71.     13.     87.     15.
     49.     10.     87.     15.     87.     15.     76.     14.     63.     12.
     60.     12.     65.     12.     92.     15.     57.     11.     87.     15.
     73.     13.     82.     14.     76.     14.     65.     12.     65.     12.
     84.     14.     57.     11.     68.     13.     68.     13.     68.     13.
     57.     11.     82.     14.     65.     12.     73.     13.     87.     15.
     76.      9.     66.      9.     90.     10.     58.      8.     57.      8.
     70.      9.     74.      9.     75.      9.     76.      9.     62.      8.
     64.      8.     66.      9.     72.      9.     74.      9.     64.      8.
     66.      9.     57.      8.     60.      8.     77.      9.     75.      9.
     76.      9.     60.      8.     75.      9.     74.      9.     62.      8.
     55.      8.     60.      8.     67.      9.     75.      9.     78.      9.
     67.      9.     70.      9.     75.      9.     78.      9.     64.      8.
     64.      8.     62.      8.     56.      8.     67.      9.     67.      9.
     72.      9.     62.      8.     70.      9.     79.     10.     61.      8.
     53.      8.     58.      8.     54.      8.     70.      9.     57.      8.
     57.      8.     61.      8.     59.      8.     66.      9.     49.      7.
     59.      8.     57.      8.     66.      9.     68.      9.     66.      9.
     63.      8.     45.      7.     71.      9.     64.      8.     84.     10.
     60.      8.     48.      7.     45.      7.     68.      9.     58.      8.
     56.      8.     58.      8.     72.      9.     64.      8.     60.      8.
     70.      9.     67.      9.     64.      8.     63.      8.     62.      8.
     67.      9.     67.      9.     75.      9.     65.      8.     67.      9.
     61.      8.     69.      9.     65.      9.     54.      8.     58.      8.
     69.      9.     62.      8.     69.      9.     59.      8.     50.      7.
     58.      8.     67.      9.     62.      8.     69.      9.     62.      8.
     57.      8.     52.      8.     66.      9.     63.      9.     49.      8.
     52.      8.     52.      8.     55.      8.     54.      8.     61.      9.
     55.      8.     50.      8.     46.      7.     60.      8.     54.      8.
     50.      8.     61.      9.     56.      8.     45.      7.     52.      8.
     53.      8.     51.      8.     54.      8.     51.      8.     68.      9.
     70.      9.     64.      9.     49.      8.     49.      7.     63.      9.
     52.      8.     54.      8.     50.      8.     44.      7.     54.      8.
     54.      8.     52.      8.     55.      8.     49.      8.     50.      8.
     39.      6.     53.      8.     55.      8.     55.      8.     49.      7.
     47.      7.     56.      8.     55.      8.     49.      8.     52.      8.
     50.      8.     53.      8.     54.      8.     59.      8.     57.      8.
     63.      9.     56.      8.     61.      9.     58.      8.     61.      9.
     49.      8.     45.      7.     56.      8.     53.      8.     65.      9.
     54.      8.     57.      8.     54.      8.     54.      8.     56.      8.
     61.      9.     48.      7.     51.      8.     56.      8.     58.      8.
     67.      9.     40.      7.     46.      7.     62.      9.     59.      8.
     56.      8.     61.      9.     60.      8.     54.      8.     60.      8.
     54.      8.     48.      7.     50.      8.     57.      8.     57.      8.
     42.      7.     42.      7.     48.      7.     57.      8.     51.      8.
     60.      8.     48.      8.     61.      9.     64.      9.     55.      8.
     47.     11.     59.      9.     54.      8.     46.      8.     42.      7.
     45.      8.     42.      7.     59.      9.     55.      8.     45.      8.
     47.      8.     43.      7.     37.      7.     43.      7.     51.      8.
     46.      8.     50.      8.     38.      7.     34.      6.     46.      8.
     37.      7.     39.      7.     45.      8.     48.      8.     50.      8.
     53.      8.     47.      8.     46.      8.     39.      7.     52.      8.
     50.      8.     52.      8.     44.      7.     51.      8.     54.      8.
     47.      8.     44.      7.     48.      8.     49.      8.     41.      7.
     39.      7.     42.      7.     34.      7.     53.      8.     61.      9.
     35.      7.     56.      8.     54.      8.     40.      7.     50.      8.
     53.      8.     56.      8.     43.      7.     36.      7.     37.      7.
     32.      6.     40.      7.     47.      8.     43.      7.     37.      7.
     45.      7.     59.      9.     60.      9.     73.     10.     78.     10.
     77.     10.     81.     10.     77.     10.     67.      9.     55.      8.
     42.      7.     40.      7.     45.      8.     54.      8.     50.      8.
     38.      7.     52.      8.     54.      8.     35.      7.     54.      8.
     54.      8.     52.      8.     50.      8.     47.      8.     44.      7.
     39.      7.     32.      6.     38.      7.     41.      7.     47.      8.
     47.      8.     40.      7.     39.      7.     42.      7.     34.      6.
     50.      8.     51.      8.     49.      8.     47.      8.     35.      7.
     56.      8.     46.      7.     43.      7.     56.      8.     57.      8.
     63.      8.     50.      8.     55.      8.     47.      7.     41.      7.
     31.      6.     40.      7.     47.      7.     42.      7.     51.      8.
     51.      8.     51.      8.     31.      6.     46.      7.     41.      7.
     49.      7.     54.      8.     48.      7.     43.      7.     50.      8.
     43.      7.     44.      7.     55.      8.     35.      6.     50.      7.
     37.      6.     34.      6.     30.      6.     43.      7.     38.      7.
     32.      6.     35.      6.     46.      7.     45.      7.     46.      7.
     34.      6.     42.      7.     36.      6.     50.      8.     52.      8.
     64.      9.    105.     11.    157.     13.    320.     19.    493.     24.
    632.     27.    720.     29.    629.     27.    483.     24.    291.     18.
    160.     14.     90.     10.     58.      8.     53.      8.     40.      7.
     40.      7.     45.      7.     33.      6.     37.      6.     42.      7.
     58.      8.     47.      7.     47.      7.     52.      8.     37.      6.
     36.      6.     51.      8.     50.      7.     51.      8.     33.      6.
     39.      7.     42.      7.     41.      7.     50.      8.     49.      7.
     39.      7.     51.      8.     49.      7.     33.      6.     51.      8.
     39.      7.     42.      7.     44.      7.     55.      8.     52.      8.
     50.      8.     41.      7.     45.      7.     49.      7.     57.      8.
     54.      8.     53.      8.     46.      7.     52.      8.     36.      6.
     34.      6.     41.      7.     41.      7.     39.      7.     44.      7.
     47.      7.     34.      6.     32.      6.     31.      6.     34.      6.
     32.      6.     29.      6.     39.      7.     43.      7.     36.      6.
     35.      6.     35.      6.     43.      7.     51.      8.     47.      7.
     36.      6.     40.      7.     47.      7.     45.      7.     47.      7.
     32.      6.     35.      6.     39.      6.     41.      7.     36.      6.
     28.      6.     33.      6.     33.      6.     36.      6.     31.      6.
     38.      6.     44.      7.     35.      6.     37.      6.     36.      6.
     36.      6.     36.      6.     37.      6.     40.      7.     36.      6.
     32.      6.     35.      6.     46.      7.     45.      7.     44.      7.
     34.      6.     43.      7.     33.      6.     39.      7.     38.      6.
     34.      6.     35.      6.     41.      7.     41.      7.     43.      7.
     33.      6.     36.      6.     40.      7.     37.      6.     46.      7.
     40.      7.     34.      6.     31.      6.     37.      6.     42.      7.
     42.      7.     29.      6.     37.      6.     43.      7.     38.      6.
     40.      7.     37.      6.     46.      7.     47.      7.     32.      6.
     39.      7.     36.      6.     42.      7.     37.      6.     41.      7.
     29.      5.     46.      7.     35.      6.     52.      8.     53.      8.
     46.      7.     47.      7.     53.      8.     42.      7.     39.      7.
     46.      7.     41.      7.     43.      7.     37.      6.     39.      6.
     38.      6.     37.      6.     35.      6.     34.      6.     26.      5.
     34.      6.     31.      6.     38.      6.     34.      6.     37.      6.
     40.      6.     33.      6.     32.      6.     40.      6.     25.      5.
     31.      6.     39.      6.     38.      6.     46.      7.     33.      6.
     33.      6.     34.      6.     34.      6.     39.      6.     35.      6.
     33.      6.     33.      6.     38.      6.     34.      6.     34.      6.
     29.      5.     32.      6.     29.      5.     36.      6.     39.      6.
     44.      7.     50.      7.     67.      8.     79.      9.    139.     12.
    237.     16.    364.     20.    443.     22.    457.     22.    331.     19.
    199.     15.    120.     11.     72.      9.     44.      7.     37.      6.
     33.      6.     41.      6.     35.      6.     35.      6.     32.      6.
     26.      5.     32.      6.     43.      7.     35.      6.     39.      6.
     39.      6.     36.      6.     39.      6.     43.      7.     44.      7.
     49.      7.     49.      7.     38.      6.     43.      7.     35.      6.
     26.      5.     27.      5.     32.      6.     35.      6.     39.      6.
     41.      6.     38.      6.     37.      6.     40.      6.     42.      7.
     35.      6.     37.      6.     34.      6.     34.      6.     33.      6.
     38.      6.     42.      7.     34.      6.     37.      6.     34.      6.
     36.      6.     42.      7.     61.      8.     71.      9.     96.     10.
     94.     10.     82.      9.     57.      8.     54.      8.     41.      6.
     37.      5.     31.      5.     38.      6.     40.      6.     41.      6.
     33.      5.     44.      6.     47.      6.     33.      5.     39.      6.
     42.      6.     32.      5.     38.      6.     38.      6.     38.      6.
     50.      7.     50.      7.     44.      6.     43.      6.     36.      6.
     37.      6.     35.      6.     40.      6.     42.      6.     38.      6.
     45.      6.     37.      6.     42.      6.     40.      6.     42.      6.
     37.      6.     35.      6.     35.      6.     31.      5.     33.      5.
     33.      5.     37.      6.     38.      6.     35.      6.     31.      5.
     42.      6.     51.      7.     43.      6.     41.      6.     40.      6.
     39.      6.     35.      6.     36.      6.     39.      6.     38.      6.
     36.      6.     34.      5.     44.      6.     46.      6.     41.      6.
     31.      5.     34.      5.     49.      7.     41.      6.     36.      6.
     36.      6.     43.      6.     39.      6.     39.      6.     48.      7.
     45.      6.     50.      7.     67.      8.     79.      8.    149.     12.
    325.     17.    591.     23.    835.     28.    860.     28.    759.     27.
    526.     22.    293.     16.    127.     11.     71.      8.     52.      7.
     43.      6.     50.      7.     41.      6.     48.      7.     43.      6.
     37.      6.     42.      6.     36.      6.     37.      6.     36.      6.
     39.      6.     47.      6.     47.      6.     46.      6.     39.      6.
     43.      6.     63.      8.     61.      7.     74.      8.     96.      9.
    156.     11.    346.     17.    863.     26.   1954.     40.   3880.     57.
   6443.     74.   8042.     82.   7830.     81.   5987.     71.   3515.     54.
   1618.     36.    560.     21.    180.     12.     89.      9.     72.      8.
     65.      7.     54.      7.     63.      7.     65.      7.     55.      7.
     44.      6.     42.      6.     30.      5.     44.      6.     48.      6.
     33.      5.     42.      6.     43.      6.     37.      5.     33.      5.
     42.      6.     38.      5.     39.      6.     37.      5.     36.      5.
     36.      5.     42.      6.     35.      5.     34.      5.     35.      5.
     35.      5.     33.      5.     40.      6.     35.      5.     31.      5.
     32.      5.     43.      6.     40.      6.     41.      6.     37.      5.
     37.      5.     36.      5.     46.      6.     44.      6.     40.      6.
     38.      6.     40.      6.     31.      5.     28.      5.     34.      5.
     42.      6.     42.      6.     54.      7.     46.      6.     56.      7.
     52.      6.     41.      6.     39.      6.     37.      5.     37.      5.
     43.      6.     34.      5.     44.      6.     34.      5.     28.      5.
     32.      5.     29.      5.     26.      4.     36.      5.     35.      5.
     35.      5.     34.      5.     34.      5.     34.      5.     33.      5.
     39.      6.     44.      6.     37.      5.     30.      5.     38.      6.
     36.      5.     34.      5.     31.      5.     34.      5.     34.      5.
     38.      5.     37.      5.     37.      5.     38.      6.     33.      5.
     35.      5.     30.      5.     27.      4.     33.      5.     39.      5.
     38.      5.     33.      5.     39.      5.     39.      5.     34.      5.
     35.      5.     34.      5.     34.      5.     38.      5.     34.      5.
     32.      5.     34.      5.     34.      5.     37.      5.     35.      5.
     36.      5.     41.      5.     33.      5.     36.      5.     36.      5.
     33.      5.     36.      5.     34.      5.     32.      5.     34.      5.
     28.      4.     38.      5.     33.      5.     30.      5.     29.      4.
     30.      5.     35.      5.     35.      5.     34.      5.     42.      5.
     37.      5.     35.      5.     41.      5.     37.      5.     40.      5.
     34.      5.     32.      5.     27.      4.     26.      4.     32.      5.
     35.      5.     30.      5.     31.      5.     32.      5.     31.      5.
     33.      5.     36.      5.     28.      4.     31.      5.     35.      5.
     40.      5.     33.      5.     33.      5.     34.      5.     31.      5.
     36.      5.     34.      5.     34.      5.     30.      5.     33.      5.
     30.      5.     33.      5.     36.      5.     34.      5.     36.      5.
     39.      5.     44.      6.     44.      6.     36.      5.     37.      5.
     34.      5.     38.      5.     41.      5.     40.      5.     52.      6.
     73.      7.    134.     10.    303.     15.    570.     20.    876.     25.
   1049.     28.   1023.     27.    751.     23.    429.     18.    180.     11.
     90.      8.     50.      6.     43.      5.     38.      5.     33.      5.
     31.      4.     34.      5.     37.      5.     42.      5.     37.      5.
     37.      5.     33.      5.     35.      5.     36.      5.     31.      4.
     32.      5.     27.      4.     35.      5.     45.      5.     41.      5.
     35.      5.     34.      5.     45.      5.     58.      6.     38.      5.
     40.      5.     34.      5.     31.      4.     31.      4.     35.      5.
     36.      5.     37.      5.     37.      5.     28.      4.     30.      4.
     26.      4.     33.      5.     36.      5.     36.      5.     34.      5.
     34.      5.     36.      5.     34.      5.     31.      4.     37.      5.
     31.      4.     34.      5.     47.      6.     46.      5.     42.      5.
     39.      5.     39.      5.     39.      5.     38.      5.     29.      4.
     31.      4.     39.      5.     35.      5.     36.      5.     29.      4.
     28.      4.     40.      5.     39.      5.     34.      5.     24.      4.
     30.      4.     32.      5.     32.      5.     34.      5.     38.      5.
     34.      5.     34.      5.     44.      5.     34.      5.     36.      5.
     39.      5.     51.      6.     39.      5.     32.      5.     37.      5.
     38.      5.     37.      5.     40.      5.     40.      5.     41.      5.
     51.      6.     48.      6.     66.      7.     92.      8.    172.     11.
    445.     17.   1050.     26.   2272.     39.   3625.     49.   4276.     54.
   3904.     51.   2628.     42.   1410.     31.    574.     19.    185.     11.
     83.      7.     55.      6.     52.      6.     51.      6.     49.      6.
     46.      5.     39.      5.     45.      5.     44.      5.     43.      5.
     41.      5.     41.      5.     33.      4.     35.      5.     45.      5.
     39.      5.     36.      5.     40.      5.     34.      5.     32.      4.
     33.      4.     35.      5.     37.      5.     36.      5.     38.      5.
     44.      5.     33.      4.     37.      5.     33.      4.     37.      5.
     31.      4.     30.      4.     36.      5.     57.      6.     66.      6.
     86.      7.    172.     10.    288.     13.    439.     17.    513.     18.
    458.     17.    311.     14.    154.     10.     73.      7.     41.      5.
     35.      5.     27.      4.     27.      4.     36.      5.     35.      5.
     38.      5.     32.      4.     33.      4.     38.      5.     40.      5.
     39.      5.     46.      5.     43.      5.     43.      5.     41.      5.
     35.      5.     32.      4.     31.      4.     34.      4.     41.      5.
     45.      5.     65.      6.     96.      8.    137.      9.    200.     11.
    235.     12.    226.     12.    170.     10.     98.      8.     57.      6.
     40.      5.     42.      5.     42.      5.     34.      4.     39.      5.
     33.      4.     33.      4.     28.      4.     37.      5.     36.      5.
     33.      4.     29.      4.     37.      5.     34.      5.     26.      4.
     43.      5.     41.      5.     34.      4.     31.      4.     26.      4.
     32.      4.     31.      4.     38.      5.     25.      4.     37.      5.
     40.      5.     37.      5.     33.      4.     36.      5.     34.      5.
     34.      4.     31.      4.     34.      4.     37.      4.     39.      5.
     30.      4.     32.      4.     34.      4.     30.      4.     33.      4.
     39.      5.     30.      4.     28.      4.     31.      4.     40.      5.
     35.      4.     31.      4.     29.      4.     38.      4.     30.      4.
     35.      4.     28.      4.     29.      4.     33.      4.     34.      4.
     37.      4.     32.      4.     29.      4.     39.      5.     38.      5.
     39.      5.     32.      4.     36.      4.     39.      5.     38.      5.
     34.      4.     31.      4.     31.      4.     29.      4.     34.      4.
     40.      5.     33.      4.     37.      4.     37.      4.     32.      4.
     31.      4.     33.      4.     41.      5.     38.      5.     36.      4.
     43.      5.     35.      4.     36.      4.     41.      5.     35.      4.
     29.      4.     36.      4.     37.      4.     32.      4.     34.      4.
     31.      4.     35.      4.     35.      4.     49.      5.     57.      6.
    101.      7.    218.     11.    482.     16.    762.     21.    975.     23.
   1026.     24.    753.     21.    425.     15.    186.     10.     86.      7.
     55.      5.     43.      5.     44.      5.     44.      5.     40.      5.
     44.      5.     42.      5.     38.      5.     42.      5.     38.      5.
     35.      4.     42.      5.     47.      5.     43.      5.     49.      5.
     41.      5.     50.      5.     55.      5.     44.      5.     51.      5.
     55.      5.     65.      6.     95.      7.    188.     10.    466.     16.
   1157.     34.   2627.     36.   4112.     46.   4863.     50.   4422.     48.
   3101.     40.   1649.     29.    702.     19.    267.     11.    101.      7.
     59.      5.     46.      5.     44.      5.     49.      5.     45.      5.
     45.      5.     38.      4.     42.      5.     37.      4.     32.      4.
     39.      4.     46.      5.     39.      4.     35.      4.     39.      4.
     36.      4.     37.      4.     38.      4.     35.      4.     26.      4.
     30.      4.     31.      4.     38.      4.     39.      4.     36.      4.
     42.      5.     38.      4.     35.      4.     38.      4.     35.      4.
     33.      4.     37.      4.     46.      5.     66.      6.    123.      8.
    197.     10.    294.     12.    361.     14.    369.     14.    270.     12.
    163.      9.     98.      7.     57.      5.     37.      4.     40.      4.
     37.      4.     39.      4.     32.      4.     37.      4.     38.      4.
     37.      4.     37.      4.     36.      4.     36.      4.     40.      4.
     39.      4.     32.      4.     30.      4.     35.      4.     34.      4.
     32.      4.     34.      4.     30.      4.     31.      4.     36.      4.
     33.      4.     35.      4.     31.      4.     28.      4.     32.      4.
     38.      4.     34.      4.     29.      4.     31.      4.     39.      4.
     39.      4.     33.      4.     36.      4.     36.      4.     35.      4.
     36.      4.     33.      4.     34.      4.     36.      4.     34.      4.
     35.      4.     40.      4.     39.      4.     32.      4.     35.      4.
     30.      4.     33.      4.     36.      4.     35.      4.     34.      4.
     29.      4.     28.      4.     29.      4.     30.      4.     28.      4.
     32.      4.     29.      4.     30.      4.     33.      4.     34.      4.
     35.      4.     39.      4.     38.      4.     33.      4.     33.      4.
     40.      5.     41.      5.     43.      5.     38.      4.     32.      4.
     38.      4.     31.      4.     33.      4.     36.      4.     37.      4.
     36.      4.     36.      4.     34.      4.     32.      4.     32.      4.
     31.      4.     34.      4.     31.      4.     34.      4.     38.      4.
     34.      4.     35.      4.     35.      4.     39.      4.     41.      5.
     36.      4.     36.      4.     34.      4.     34.      4.     38.      4.
     41.      5.     39.      4.     33.      4.     38.      4.     46.      5.
     38.      4.     41.      5.     35.      4.     40.      5.     39.      4.
     38.      4.     41.      5.     43.      5.     42.      5.     44.      5.
     42.      5.     35.      4.     38.      4.     45.      5.     44.      5.
     37.      4.     49.      5.     85.      7.    154.      9.    268.     12.
    424.     15.    508.     16.    512.     16.    455.     15.    443.     15.
    669.     18.   1260.     25.   2053.     32.   2738.     37.   2792.     38.
   2257.     34.   1441.     27.    732.     19.    304.     12.    126.      8.
     63.      6.     54.      5.     49.      5.     42.      5.     43.      5.
     39.      4.     48.      5.     41.      5.     38.      4.     37.      4.
     34.      3.     36.      4.     34.      4.     35.      4.     36.      4.
     41.      5.     36.      4.     29.      4.     33.      4.     32.      4.
     37.      4.     43.      5.     35.      4.     36.      4.     37.      4.
     40.      4.     41.      5.     35.      4.     38.      4.     35.      4.
     37.      4.     41.      5.     37.      4.     32.      4.     34.      4.
     33.      4.     36.      4.     36.      4.     33.      4.     33.      4.
     35.      4.     39.      4.     35.      4.     33.      4.     42.      5.
     39.      4.     34.      4.     33.      4.     37.      4.     40.      4.
     43.      5.     44.      5.     43.      5.     61.      6.    103.      7.
    164.      9.    255.     11.    287.     12.    272.     12.    218.     10.
    150.      9.     97.      7.     72.      6.     52.      5.     45.      5.
     35.      4.     42.      5.     33.      4.     34.      4.     31.      4.
     32.      4.     42.      5.     36.      4.     31.      4.     38.      4.
     35.      4.     31.      4.     31.      4.     35.      4.     33.      4.
     32.      4.     34.      4.     32.      4.     35.      4.     31.      4.
     36.      4.     36.      4.     35.      4.     38.      4.     39.      4.
     40.      4.     36.      4.     39.      4.     33.      4.     36.      4.
     37.      4.     36.      4.     41.      5.     34.      4.     37.      4.
     45.      5.     35.      4.     34.      4.     36.      4.     33.      4.
     31.      4.     46.      5.     69.      6.    104.      7.    199.     10.
    416.     19.    852.     20.   1219.     24.   1436.     26.   1362.     25.
   1038.     22.    628.     17.    326.     12.    150.      8.     69.      6.
     53.      5.     42.      4.     42.      4.     41.      4.     45.      5.
     46.      5.     44.      5.     42.      4.     38.      4.     51.      5.
     66.      6.    150.      8.    360.     13.    782.     19.   1371.     25.
   1993.     31.   2283.     33.   2036.     31.   1527.     27.    902.     21.
    430.     14.    185.      9.     86.      6.     53.      5.     50.      5.
     42.      4.     43.      4.     51.      5.     69.      6.     94.      7.
    136.      8.    176.      9.    167.      9.    146.      8.    106.      7.
     73.      6.     52.      5.     45.      5.     43.      5.     30.      4.
     35.      4.     36.      4.     29.      4.     33.      4.     36.      4.
     40.      4.     39.      4.     36.      4.     37.      4.     39.      4.
     44.      5.     67.      6.    106.      7.    200.     10.    309.     12.
    402.     14.    472.     15.    443.     14.    338.     13.    226.     10.
    134.      8.     78.      6.     46.      5.     42.      4.     35.      4.
     36.      4.     30.      4.     30.      4.     30.      4.     35.      4.
     29.      4.     34.      4.     38.      4.     39.      4.     38.      4.
     33.      4.     33.      4.     34.      4.     35.      4.     35.      4.
     36.      4.     33.      4.     34.      4.     31.      4.     38.      4.
     35.      4.     33.      4.     28.      4.     38.      4.     38.      4.
     37.      4.     28.      4.     36.      4.     30.      4.     33.      4.
     32.      4.     31.      4.     36.      4.     34.      4.     31.      4.
     43.      5.     37.      4.     34.      4.     37.      4.     44.      5.
     51.      5.     62.      5.     75.      6.     91.      7.    108.      7.
     96.      7.     74.      6.     58.      5.     48.      5.     41.      4.
     45.      5.     34.      4.     35.      4.     33.      4.     34.      4.
     26.      4.     32.      4.     38.      4.     35.      4.     39.      4.
     35.      4.     33.      4.     41.      4.     25.      3.     34.      4.
     38.      4.     31.      4.     34.      4.     38.      4.     39.      4.
     34.      4.     36.      4.     44.      5.     70.      6.    136.      8.
    243.     11.    394.     14.    526.     16.    585.     17.    530.     16.
    402.     14.    265.     11.    126.      8.     78.      6.     56.      5.
     55.      5.     63.      6.     64.      6.     70.      6.     69.      6.
     52.      5.     41.      4.     45.      5.     34.      4.     32.      4.
     30.      4.     30.      4.     36.      4.     36.      4.     32.      4.
     29.      4.     29.      4.     30.      4.     35.      4.     33.      4.
     25.      3.     27.      4.     35.      4.     29.      4.     36.      4.
     36.      4.     37.      4.     35.      4.     41.      4.     32.      4.
     33.      4.     36.      4.     39.      4.     36.      4.     36.      4.
     37.      4.     26.      4.     40.      4.     31.      4.     28.      4.
     32.      4.     33.      4.     29.      4.     39.      4.     35.      4.
     34.      4.     32.      4.     33.      4.     39.      4.     34.      4.
     34.      4.     32.      4.     31.      4.     43.      5.     33.      4.
     30.      4.     35.      4.     36.      4.     37.      4.     31.      4.
     30.      4.     26.      4.     33.      4.     38.      4.     36.      4.
     38.      4.     33.      4.     34.      4.     41.      5.     45.      5.
     46.      5.     58.      5.     71.      6.     90.      7.    113.      8.
    140.      8.    140.      8.    138.      8.    162.      9.    256.     11.
    517.     16.    858.     21.   1275.     25.   1565.     28.   1709.     29.
   1538.     28.   1117.     24.    710.     19.    387.     14.    179.      9.
     85.      7.     60.      5.     49.      5.     35.      4.     43.      5.
     35.      4.     38.      4.     38.      4.     36.      4.     39.      4.
     32.      4.     40.      4.     30.      4.     27.      4.     33.      4.
     35.      4.     33.      4.     27.      4.     34.      4.     36.      4.
     34.      4.     37.      4.     30.      4.     31.      4.     31.      4.
     40.      4.     31.      4.     36.      4.     36.      4.     33.      4.
     37.      4.     34.      4.     31.      4.     31.      4.     28.      4.
     26.      4.     37.      4.     30.      4.     23.      3.     33.      4.
     45.      5.     34.      4.     37.      4.     39.      4.     33.      4.
     35.      4.     36.      4.     30.      4.     43.      5.     26.      4.
     49.      5.     73.      6.    123.      8.    193.     10.    282.     12.
    363.     14.    437.     15.    435.     15.    390.     14.    313.     13.
    208.     10.    133.      8.     83.      7.     50.      5.     45.      5.
     40.      5.     31.      4.     34.      4.     41.      5.     37.      4.
     40.      5.     35.      4.     29.      4.     29.      4.     39.      4.
     34.      4.     32.      4.     37.      4.     39.      4.     40.      5.
     34.      4.     30.      4.     32.      4.     29.      4.     37.      4.
     42.      5.     30.      4.     33.      4.     38.      4.     26.      4.
     33.      4.     32.      4.     36.      4.     36.      4.     34.      4.
     34.      4.     37.      4.     29.      4.     32.      4.     32.      4.
     32.      4.     41.      5.     42.      5.     37.      4.     49.      5.
     72.      6.    113.      8.    159.      9.    200.     10.    236.     11.
    254.     11.    245.     11.    224.     11.    187.     10.    113.      8.
     93.      7.     54.      5.     43.      5.     38.      4.     35.      4.
     39.      4.     39.      4.     37.      4.     30.      4.     33.      4.
     39.      4.     30.      4.     41.      5.     28.      4.     33.      4.
     32.      4.     33.      4.     31.      4.     32.      4.     38.      4.
     44.      5.     35.      4.     37.      4.     47.      5.     62.      6.
    105.      7.    166.      9.    230.     11.    323.     13.    379.     14.
    432.     15.    416.     15.    346.     13.    264.     12.    179.     10.
    118.      8.     69.      6.     49.      5.     52.      5.     51.      5.
     40.      4.     43.      5.     46.      5.     31.      4.     33.      4.
     37.      4.     44.      5.     43.      5.     37.      4.     33.      4.
     36.      4.     33.      4.     30.      4.     34.      4.     35.      4.
     32.      4.     33.      4.     37.      4.     35.      4.     32.      4.
     35.      4.     41.      5.     54.      5.     68.      6.     81.      6.
     96.      7.    118.      8.    116.      8.    115.      8.     94.      7.
     72.      6.     53.      5.     42.      5.     42.      5.     42.      5.
     33.      4.     30.      4.     35.      4.     28.      4.     36.      4.
     30.      4.     28.      4.     27.      4.     38.      4.     37.      4.
     42.      5.     37.      4.     34.      4.     30.      4.     33.      4.
     29.      4.     30.      4.     33.      4.     31.      4.     34.      4.
     28.      4.     32.      4.     31.      4.     30.      4.     35.      4.
     37.      4.     31.      4.     35.      4.     35.      4.     42.      5.
     30.      4.     38.      4.     37.      4.     39.      4.     36.      4.
     37.      4.     35.      4.     34.      4.     30.      4.     30.      4.
     34.      4.     31.      4.     27.      4.     32.      4.     33.      4.
     24.      3.     29.      4.     35.      4.     29.      4.     37.      4.
     33.      4.     35.      4.     35.      4.     34.      4.     37.      4.
     32.      4.     31.      4.     35.      4.     31.      4.     35.      4.
     36.      6.     35.      4.     38.      4.     32.      4.     33.      4.
     35.      4.     40.      4.     38.      4.     38.      4.     36.      4.
     36.      4.     32.      4.     32.      4.     37.      4.     41.      4.
     37.      4.     34.      4.     32.      4.     34.      4.     33.      4.
     31.      4.     34.      4.     45.      5.     64.      6.     97.      7.
    133.      8.    167.      9.    201.     10.    238.     11.    261.     11.
    284.     12.    276.     12.    252.     11.    237.     11.    226.     11.
    206.     10.    186.     10.    165.      9.    138.      8.    114.      8.
     95.      7.     74.      6.     55.      5.     46.      5.     43.      5.
     42.      5.     40.      4.     37.      4.     40.      4.     55.      5.
     61.      5.     77.      6.    122.      8.    175.      9.    236.     11.
    282.     12.    350.     13.    371.     14.    396.     14.    377.     14.
    320.     13.    273.     12.    206.     10.    138.      8.    108.      7.
     71.      6.     52.      5.     44.      5.     43.      5.     45.      5.
     46.      5.     41.      5.     32.      4.     36.      4.     38.      4.
     35.      4.     34.      4.     37.      4.     37.      4.     38.      4.
     38.      4.     35.      4.     37.      4.     37.      4.     43.      5.
     38.      4.     36.      4.     36.      4.     40.      4.     40.      4.
     36.      4.     38.      4.     32.      4.     32.      4.     38.      4.
     40.      4.     35.      4.     39.      4.     41.      5.     31.      4.
     31.      4.     39.      4.     42.      4.     41.      4.     42.      4.
     46.      4.     40.      4.     43.      4.     50.      5.     50.      5.
     56.      5.     69.      6.    104.      7.    188.      9.    310.     12.
    463.     15.    652.     18.    799.     19.    953.     21.   1108.     23.
   1111.     23.   1021.     22.    899.     21.    738.     19.    557.     16.
    384.     13.    251.     11.    153.      8.     92.      6.     61.      5.
     50.      5.     49.      5.     50.      5.     45.      4.     43.      4.
     45.      4.     42.      4.     45.      4.     43.      4.     44.      4.
     43.      4.     42.      4.     41.      4.     41.      4.     40.      4.
     42.      4.     40.      4.     40.      4.     45.      4.     45.      4.
     48.      5.     67.      5.     88.      6.    131.      8.    196.     10.
    301.     12.    433.     14.    530.     16.    657.     18.    762.     19.
    784.     19.    711.     18.    683.     18.    612.     17.    515.     16.
    404.     14.    284.     11.    191.      9.    153.      8.    122.      7.
    112.      7.     96.      7.     91.      6.     80.      6.     75.      6.
     70.      6.     63.      5.     56.      5.     51.      5.     45.      4.
     41.      4.     40.      4.     36.      4.     41.      4.     40.      4.
     34.      4.     33.      4.     35.      4.     41.      4.     34.      4.
     38.      4.     38.      4.     42.      4.     36.      4.     36.      4.
     41.      4.     40.      4.     34.      4.     34.      4.     41.      4.
     40.      4.     42.      4.     41.      4.     44.      4.     40.      4.
     51.      5.     44.      4.     38.      4.     41.      4.     43.      4.
     42.      4.     43.      4.     34.      4.     34.      4.     35.      4.
     35.      4.     41.      4.     39.      4.     34.      4.     43.      4.
     42.      4.     44.      4.     39.      4.     45.      4.     41.      4.
     39.      4.     43.      4.     44.      4.     40.      4.     42.      4.
     40.      4.     42.      4.     46.      4.     46.      4.     56.      5.
     81.      6.     96.      7.    105.      7.    136.      8.    165.      9.
    174.      9.    186.      9.    213.     10.    202.     10.    196.     10.
    172.      9.    153.      9.    130.      8.    110.      7.     89.      6.
     67.      6.     58.      5.     52.      5.     49.      5.     43.      4.
     44.      4.     48.      5.     49.      5.     50.      5.     40.      4.
     48.      5.     47.      4.     50.      5.     45.      4.     46.      4.
     51.      5.     59.      5.     63.      5.     75.      6.    116.      7.
    179.      9.    301.     12.    479.     15.    679.     18.    911.     21.
   1119.     24.   1349.     26.   1518.     27.   1641.     29.   1685.     29.
   1630.     28.   1464.     27.   1255.     25.   1040.     23.    797.     20.
    603.     17.    406.     14.    258.     11.    149.      8.    108.      7.
     79.      6.     69.      6.     55.      5.     52.      5.     50.      5.
     48.      5.     47.      4.     45.      4.     46.      4.     42.      4.
     46.      4.     35.      4.     48.      5.     48.      5.     51.      5.
     50.      5.     41.      4.     52.      5.     44.      4.     47.      5.
     41.      4.     42.      4.     48.      5.     45.      4.     48.      5.
     44.      4.     43.      4.     53.      5.     47.      5.     60.      5.
     67.      6.     78.      6.     91.      7.    124.      8.    151.      9.
    174.      9.    223.     11.    250.     11.    279.     12.    289.     12.
    304.     12.    278.     12.    267.     12.    271.     12.    227.     11.
    192.     10.    138.      8.    127.      8.    100.      7.     64.      5.
     64.      5.     55.      5.     48.      5.     47.      5.     46.      4.
     45.      4.     48.      5.     49.      5.     48.      5.     54.      5.
     46.      4.     47.      5.     51.      5.     45.      4.     54.      5.
     41.      4.     43.      4.     52.      5.     45.      4.     43.      4.
     50.      5.     50.      5.     39.      4.     49.      5.     46.      5.
     50.      5.     46.      4.     45.      4.     35.      4.     49.      5.
     40.      4.     41.      4.     40.      4.     46.      5.     42.      4.
     47.      5.     55.      5.     46.      4.     51.      5.     55.      5.
     61.      5.     78.      6.    112.      7.    170.      9.    196.     10.
    251.     11.    330.     13.    403.     14.    442.     15.    513.     16.
    561.     17.    605.     18.    575.     17.    548.     17.    538.     17.
    493.     16.    411.     14.    349.     13.    278.     12.    213.     10.
    160.      9.    124.      8.     92.      7.     74.      6.     56.      5.
     52.      5.     54.      5.     46.      5.     47.      5.     47.      5.
     45.      5.     40.      4.     38.      4.     44.      5.     44.      5.
     42.      4.     49.      5.     48.      5.     40.      4.     58.      5.
     49.      5.     62.      5.     67.      6.     95.      7.    115.      7.
    176.      9.    272.     12.    377.     14.    454.     15.    589.     17.
    791.     20.    895.     21.   1075.     23.   1213.     25.   1229.     25.
   1252.     25.   1305.     26.   1280.     25.   1187.     24.   1046.     23.
    951.     22.    778.     20.    617.     18.    463.     15.    340.     13.
    236.     11.    167.      9.    136.      8.    104.      7.     96.      7.
     87.      6.    102.      7.    126.      8.    139.      8.    148.      9.
    153.      9.    179.      9.    195.     10.    215.     10.    224.     11.
    217.     10.    218.     10.    185.     10.    195.     10.    177.      9.
    158.      9.    141.      8.    121.      8.    103.      7.     96.      7.
     78.      6.     81.      6.     87.      7.     88.      7.     95.      7.
    112.      7.    116.      8.    138.      8.    155.      9.    166.      9.
    190.     10.    199.     10.    208.     10.    233.     11.    235.     11.
    215.     10.    242.     11.    226.     11.    206.     10.    192.     10.
    170.      9.    147.      8.    151.      9.    142.      8.    119.      8.
    106.      7.     88.      7.     94.      7.     79.      6.     68.      6.
     67.      9.     63.      6.     48.      5.     44.      5.     42.      5.
     41.      5.     42.      5.     46.      5.     47.      5.     40.      5.
     49.      5.     44.      5.     39.      5.     39.      5.     43.      5.
     44.      5.     55.      5.     40.      5.     45.      5.     46.      5.
     46.      5.     47.      5.     43.      5.     38.      5.     37.      4.
     38.      5.     43.      5.     47.      5.     43.      5.     46.      5.
     48.      5.     41.      5.     40.      5.     44.      5.     35.      4.
     41.      5.     47.      5.     39.      5.     47.      5.     51.      5.
     59.      6.     44.      5.     55.      5.     69.      6.     77.      6.
    105.      7.    159.      9.    203.     10.    276.     12.    359.     14.
    484.     16.    584.     17.    726.     19.    848.     21.    982.     22.
   1061.     23.   1163.     24.   1269.     25.   1328.     26.   1331.     26.
   1334.     26.   1294.     26.   1229.     25.   1116.     24.   1044.     23.
    912.     22.    775.     20.    640.     18.    508.     16.    364.     14.
    291.     12.    214.     10.    150.      9.    114.      8.     90.      7.
     68.      6.     60.      6.     62.      6.     59.      6.     52.      5.
     46.      5.     49.      5.     44.      5.     53.      5.     50.      5.
     49.      5.     49.      5.     48.      5.     48.      5.     42.      5.
     60.      6.     50.      5.     44.      5.     44.      5.     43.      5.
     43.      5.     48.      5.     50.      5.     45.      5.     46.      5.
     46.      4.     44.      5.     46.      5.     45.      5.     39.      4.
     43.      5.     39.      4.     41.      5.     45.      5.     50.      5.
     45.      5.     46.      5.     49.      5.     53.      5.     58.      5.
     52.      5.     52.      5.     60.      6.     71.      6.     77.      6.
     70.      6.     73.      6.     78.      6.     78.      6.     73.      6.
     75.      6.     78.      6.     74.      6.     68.      6.     69.      6.
     71.      6.     70.      6.     68.      6.     62.      6.     64.      6.
     58.      5.     53.      5.     48.      5.     58.      5.     53.      5.
     52.      5.     47.      5.     48.      5.     51.      5.     63.      6.
     72.      6.     71.      6.     69.      6.     83.      6.     82.      6.
     81.      6.     88.      7.     83.      6.     91.      7.     85.      7.
     88.      7.     92.      7.     79.      6.     80.      6.     79.      6.
     79.      6.     87.      7.     82.      6.     76.      6.     78.      6.
     80.      6.     91.      7.    112.      7.    145.      8.    162.      9.
    192.     10.    244.     11.    311.     12.    366.     13.    386.     14.
    456.     15.    522.     16.    572.     17.    634.     18.    692.     18.
    725.     19.    768.     19.    801.     20.    792.     20.    757.     19.
    750.     19.    762.     19.    715.     19.    669.     18.    595.     17.
    532.     16.    488.     15.    416.     14.    352.     13.    311.     12.
    253.     11.    212.     10.    169.      9.    140.      8.    122.      8.
     91.      7.     76.      6.     69.      6.     61.      5.     56.      5.
     56.      5.     59.      5.     50.      5.     42.      4.     54.      5.
     53.      5.     58.      5.     48.      5.     51.      5.     51.      5.
     49.      5.     46.      5.     47.      5.     50.      5.     54.      5.
     63.      6.     65.      6.     71.      6.     82.      6.    100.      7.
    112.      7.    122.      8.    148.      8.    181.      9.    217.     10.
    233.     11.    262.     11.    269.     11.    289.     12.    327.     13.
    349.     13.    352.     13.    388.     14.    386.     14.    413.     14.
    413.     14.    414.     14.    401.     14.    389.     14.    385.     14.
    385.     14.    351.     13.    329.     13.    303.     12.    251.     11.
    246.     11.    219.     10.    173.      9.    144.      8.    125.      8.
    103.      7.     89.      7.     82.      6.     72.      6.     60.      5.
     63.      6.     60.      5.     61.      5.     52.      5.     55.      5.
     46.      5.     52.      5.     48.      5.     45.      5.     46.      5.
     44.      5.     44.      5.     49.      5.     49.      5.     47.      5.
     45.      5.     52.      5.     49.      5.     51.      5.     54.      5.
     65.      6.     63.      5.     64.      6.     70.      6.     73.      6.
     83.      6.     97.      7.    101.      7.    101.      7.    106.      7.
    110.      7.    122.      8.    147.      8.    148.      8.    155.      9.
    161.      9.    172.      9.    180.      9.    187.      9.    211.     10.
    205.     10.    215.     10.    226.     10.    237.     10.    250.     11.
    262.     11.    261.     11.    271.     11.    275.     11.    276.     11.
    290.     12.    280.     11.    305.     12.    308.     12.    299.     12.
    297.     12.    304.     12.    305.     12.    309.     12.    322.     12.
    327.     12.    330.     12.    346.     13.    340.     12.    337.     12.
    339.     12.    334.     12.    326.     12.    327.     12.    329.     12.
    322.     12.    331.     12.    309.     12.    291.     12.    289.     12.
    293.     12.    284.     11.    270.     11.    272.     11.    268.     11.
    272.     11.    252.     11.    220.     10.    207.     10.    212.     10.
    205.     10.    197.     10.    178.      9.    163.      9.    160.      9.
    167.      9.    157.      9.    132.      8.    119.      7.    111.      7.
    107.      7.     98.      7.     94.      7.     94.      7.    104.      7.
    119.      7.    132.      8.    129.      8.    154.      8.    186.      9.
    193.      9.    220.     10.    256.     11.    289.     12.    328.     12.
    352.     13.    397.     13.    425.     14.    459.     14.    502.     15.
    557.     16.    578.     16.    618.     17.    634.     17.    644.     17.
    678.     18.    711.     18.    693.     18.    697.     18.    713.     18.
    711.     18.    694.     18.    697.     18.    677.     18.    663.     17.
    652.     17.    605.     17.    562.     16.    544.     16.    528.     16.
    474.     15.    416.     14.    380.     13.    338.     12.    301.     12.
    252.      9.    219.     10.    199.     10.    168.      9.    149.      8.
    143.      8.    127.      8.    107.      7.     99.      7.     89.      6.
     83.      6.     75.      6.     77.      6.     66.      6.     55.      5.
     60.      5.     62.      6.     61.      5.     65.      6.     63.      6.
     66.      6.     68.      6.     66.      6.     62.      6.     53.      5.
     58.      5.     58.      5.     61.      5.     66.      6.     66.      6.
     64.      6.     59.      5.     61.      5.     66.      6.     62.      6.
     63.      6.     65.      6.     59.      5.     59.      5.     56.      5.
     57.      5.     62.      6.     59.      5.     60.      5.     64.      6.
     68.      6.     72.      6.     63.      6.     56.      5.     58.      5.
     63.      6.     61.      5.     62.      6.     63.      6.     67.      6.
     61.      5.     62.      6.     64.      6.     61.      5.     67.      6.
     68.      6.     64.      6.     70.      6.     68.      6.     66.      6.
     67.      6.     59.      5.     56.      5.     59.      5.     68.      6.
     66.      6.     67.      6.     67.      6.     68.      6.     67.      6.
     63.      6.     61.      5.     66.      6.     61.      5.     58.      5.
     59.      5.     64.      6.     65.      6.     66.      6.     71.      6.
     75.      6.     64.      6.     62.      6.     69.      6.     73.      6.
     72.      6.     76.      6.     71.      6.     72.      6.     77.      6.
     76.      6.     68.      6.     69.      6.     73.      6.     79.      6.
     65.      6.     65.      6.     72.      6.     66.      6.     70.      6.
     72.      6.     67.      6.     68.      6.     68.      6.     79.      6.
     65.      6.     68.      6.     69.      6.     77.      6.     83.      7.
     78.      6.     81.      7.     77.      6.     65.      6.     67.      6.
     75.      6.     78.      6.     75.      6.     72.      6.     69.      6.
     76.      6.     78.      6.     82.      7.     85.      7.     72.      6.
     84.      7.     79.      6.     77.      6.     77.      6.     70.      6.
     73.      6.     84.      7.     78.      6.     79.      6.     78.      6.
     81.      7.     78.      6.     79.      6.     82.      7.     80.      7.
     80.      6.     75.      6.     86.      7.     89.      7.     92.      7.
     89.      7.     83.      7.     92.      7.     98.      7.     89.      7.
     88.      7.     93.      7.    104.      7.     88.      7.     91.      7.
     97.      7.     83.      7.     88.      7.     98.      7.     93.      7.
     95.      7.     91.      7.     89.      7.     84.      7.     85.      7.
     85.      7.     88.      7.    101.      7.     97.      7.     95.      7.
     99.      7.     97.      7.    102.      7.    105.      7.    114.      8.
    112.      7.    106.      7.    116.      8.    120.      8.    123.      8.
    121.      8.    122.      8.    129.      8.    148.      8.    141.      8.
    136.      8.    129.      8.    137.      8.    148.      8.    162.      9.
    164.      9.    171.      9.    174.      9.    168.      9.    179.      9.
    182.     13.    161.     13.    164.     13.    177.     13.    211.     14.
    210.     14.    233.     15.    217.     14.    213.     14.    201.     14.
    214.     14.    229.     15.    222.     15.    238.     15.    217.     14.
    232.     15.    216.     14.    243.     15.    227.     15.    243.     15.
    248.     15.    236.     15.    225.     15.    251.     15.    260.     16.
    243.     15.    230.     15.    248.     15.    251.     15.    249.     15.
    235.     15.    232.     15.    242.     15.    231.     15.    236.     15.
    209.     14.    192.     14.    213.     14.    211.     14.    197.     14.
    240.     15.    227.     15.    208.     14.    213.     14.    177.     13.
    184.     13.    187.     14.    194.     14.    185.     13.    209.     14.
    163.     13.    155.     13.    170.     13.    168.     13.    148.     12.
    159.     13.    157.     13.    161.     13.    154.     12.    147.     12.
    151.     12.    146.     12.    161.     13.    139.     12.    144.     12.
    135.     12.    155.     12.    158.     13.    161.     13.    154.     12.
    141.     12.    157.     13.    162.     13.    168.     13.    159.     13.
    148.     12.    171.     13.    155.     13.    159.     13.    147.     12.
    157.     13.    155.     13.    166.     13.    174.     13.    178.     13.
    191.     14.    172.     13.    161.     13.    174.     13.    165.     13.
    185.     13.    185.     13.    184.     13.    166.     13.    185.     13.
    196.     14.    194.     14.    209.     14.    194.     14.    203.     14.
